Frequency (Hz)	Level (dB)
1.464844	-137.128189
2.929688	-137.128204
4.394531	-137.128250
5.859375	-137.128281
7.324219	-137.128342
8.789063	-137.128387
10.253906	-137.128479
11.718750	-137.128555
13.183594	-137.128677
14.648438	-137.128754
16.113281	-137.128906
17.578125	-137.129028
19.042969	-137.129089
20.507813	-137.129303
21.972656	-137.129440
23.437500	-137.129623
24.902344	-137.129837
26.367188	-137.130035
27.832031	-137.130264
29.296875	-137.130432
30.761719	-137.130600
32.226563	-137.130814
33.691406	-137.131058
35.156250	-137.131287
36.621094	-137.131531
38.085938	-137.131729
39.550781	-137.131989
41.015625	-137.132233
42.480469	-137.132416
43.945313	-137.132706
45.410156	-137.132950
46.875000	-137.133179
48.339844	-137.133438
49.804688	-137.133652
51.269531	-137.133804
52.734375	-137.134140
54.199219	-137.134369
55.664063	-137.134598
57.128906	-137.134796
58.593750	-137.134979
60.058594	-137.135178
61.523438	-137.135376
62.988281	-137.135635
64.453125	-137.135803
65.917969	-137.136047
67.382813	-137.136124
68.847656	-137.136261
70.312500	-137.136398
71.777344	-137.136520
73.242188	-137.136642
74.707031	-137.136734
76.171875	-137.136627
77.636719	-137.136932
79.101563	-137.136993
80.566406	-137.136963
82.031250	-137.137024
83.496094	-137.137009
84.960938	-137.137054
86.425781	-137.137100
87.890625	-137.136765
89.355469	-137.136703
90.820313	-137.136627
92.285156	-137.136444
93.750000	-137.136612
95.214844	-137.136292
96.679688	-137.136292
98.144531	-137.136169
99.609375	-137.135864
101.074219	-137.135635
102.539063	-137.135315
104.003906	-137.135223
105.468750	-137.134888
106.933594	-137.134567
108.398438	-137.134018
109.863281	-137.133865
111.328125	-137.133621
112.792969	-137.133118
114.257813	-137.132858
115.722656	-137.132339
117.187500	-137.132370
118.652344	-137.131485
120.117188	-137.131454
121.582031	-137.131012
123.046875	-137.130234
124.511719	-137.130295
125.976563	-137.129517
127.441406	-137.128937
128.906250	-137.128601
130.371094	-137.127853
131.835938	-137.127396
133.300781	-137.127151
134.765625	-137.126007
136.230469	-137.126205
137.695313	-137.126648
139.160156	-137.124939
140.625000	-137.125443
142.089844	-137.123978
143.554688	-137.123688
145.019531	-137.122757
146.484375	-137.122467
147.949219	-137.121841
149.414063	-137.121506
150.878906	-137.122040
152.343750	-137.120804
153.808594	-137.119888
155.273438	-137.119537
156.738281	-137.118851
158.203125	-137.118530
159.667969	-137.118546
161.132813	-137.117615
162.597656	-137.117569
164.062500	-137.116653
165.527344	-137.115509
166.992188	-137.116104
168.457031	-137.115448
169.921875	-137.114899
171.386719	-137.114594
172.851563	-137.114380
174.316406	-137.114014
175.781250	-137.113678
177.246094	-137.113251
178.710938	-137.112991
180.175781	-137.112701
181.640625	-137.112137
183.105469	-137.112015
184.570313	-137.111389
186.035156	-137.111191
187.500000	-137.111252
188.964844	-137.110916
190.429688	-137.110916
191.894531	-137.110382
193.359375	-137.110123
194.824219	-137.109970
196.289063	-137.109802
197.753906	-137.109756
199.218750	-137.109390
200.683594	-137.109390
202.148438	-137.109039
203.613281	-137.108948
205.078125	-137.109009
206.542969	-137.108841
208.007813	-137.108551
209.472656	-137.108383
210.937500	-137.108154
212.402344	-137.108047
213.867188	-137.107986
215.332031	-137.107986
216.796875	-137.108093
218.261719	-137.107864
219.726563	-137.107559
221.191406	-137.107559
222.656250	-137.107559
224.121094	-137.107422
225.585938	-137.107407
227.050781	-137.107452
228.515625	-137.107285
229.980469	-137.107422
231.445313	-137.107300
232.910156	-137.107437
234.375000	-137.107529
235.839844	-137.107666
237.304688	-137.107300
238.769531	-137.107681
240.234375	-137.107864
241.699219	-137.107254
243.164063	-137.107544
244.628906	-137.107513
246.093750	-137.107635
247.558594	-137.107605
249.023438	-137.107727
250.488281	-137.107895
251.953125	-137.107773
253.417969	-137.107819
254.882813	-137.108215
256.347656	-137.108109
257.812500	-137.108521
259.277344	-137.108459
260.742188	-137.108536
262.207031	-137.108292
263.671875	-137.108658
265.136719	-137.109116
266.601563	-137.108841
268.066406	-137.109238
269.531250	-137.109283
270.996094	-137.109436
272.460938	-137.109512
273.925781	-137.110214
275.390625	-137.110352
276.855469	-137.110550
278.320313	-137.110535
279.785156	-137.110748
281.250000	-137.111038
282.714844	-137.111008
284.179688	-137.111404
285.644531	-137.111740
287.109375	-137.112045
288.574219	-137.111984
290.039063	-137.111847
291.503906	-137.112381
292.968750	-137.113373
294.433594	-137.113586
295.898438	-137.113861
297.363281	-137.113724
298.828125	-137.114197
300.292969	-137.114334
301.757813	-137.114471
303.222656	-137.114838
304.687500	-137.115158
306.152344	-137.115601
307.617188	-137.115463
309.082031	-137.116013
310.546875	-137.116257
312.011719	-137.116394
313.476563	-137.116730
314.941406	-137.116760
316.406250	-137.117157
317.871094	-137.117386
319.335938	-137.117661
320.800781	-137.117844
322.265625	-137.117798
323.730469	-137.117920
325.195313	-137.118118
326.660156	-137.118698
328.125000	-137.118286
329.589844	-137.118454
331.054688	-137.118713
332.519531	-137.118820
333.984375	-137.118713
335.449219	-137.118607
336.914063	-137.118744
338.378906	-137.118774
339.843750	-137.118851
341.308594	-137.118866
342.773438	-137.118866
344.238281	-137.118530
345.703125	-137.118835
347.167969	-137.118729
348.632813	-137.118652
350.097656	-137.118332
351.562500	-137.118332
353.027344	-137.118469
354.492188	-137.118256
355.957031	-137.117920
357.421875	-137.117859
358.886719	-137.117661
360.351563	-137.117203
361.816406	-137.117126
363.281250	-137.117340
364.746094	-137.116867
366.210938	-137.116806
367.675781	-137.116760
369.140625	-137.116318
370.605469	-137.116379
372.070313	-137.116211
373.535156	-137.115662
375.000000	-137.115463
376.464844	-137.115173
377.929688	-137.114807
379.394531	-137.114868
380.859375	-137.114548
382.324219	-137.114426
383.789063	-137.114014
385.253906	-137.113541
386.718750	-137.113770
388.183594	-137.113632
389.648438	-137.113373
391.113281	-137.113205
392.578125	-137.112961
394.042969	-137.112839
395.507813	-137.112808
396.972656	-137.112762
398.437500	-137.112457
399.902344	-137.112335
401.367188	-137.112625
402.832031	-137.112350
404.296875	-137.111893
405.761719	-137.112122
407.226563	-137.112442
408.691406	-137.111710
410.156250	-137.112122
411.621094	-137.111786
413.085938	-137.111847
414.550781	-137.112030
416.015625	-137.111923
417.480469	-137.111969
418.945313	-137.111832
420.410156	-137.112274
421.875000	-137.112045
423.339844	-137.112137
424.804688	-137.112167
426.269531	-137.112335
427.734375	-137.112518
429.199219	-137.112442
430.664063	-137.111984
432.128906	-137.112259
433.593750	-137.112381
435.058594	-137.112900
436.523438	-137.113205
437.988281	-137.113098
439.453125	-137.112839
440.917969	-137.112961
442.382813	-137.112976
443.847656	-137.113235
445.312500	-137.113174
446.777344	-137.113388
448.242188	-137.113434
449.707031	-137.113617
451.171875	-137.113632
452.636719	-137.113647
454.101563	-137.113586
455.566406	-137.113739
457.031250	-137.113617
458.496094	-137.113647
459.960938	-137.113525
461.425781	-137.113739
462.890625	-137.113708
464.355469	-137.113495
465.820313	-137.112885
467.285156	-137.113266
468.750000	-137.113266
470.214844	-137.112869
471.679688	-137.112762
473.144531	-137.112701
474.609375	-137.112823
476.074219	-137.112427
477.539063	-137.112442
479.003906	-137.112488
480.468750	-137.112427
481.933594	-137.112213
483.398438	-137.111511
484.863281	-137.111343
486.328125	-137.111237
487.792969	-137.111404
489.257813	-137.111099
490.722656	-137.110428
492.187500	-137.110458
493.652344	-137.110168
495.117188	-137.110168
496.582031	-137.110321
498.046875	-137.109283
499.511719	-137.108826
500.976563	-137.108734
502.441406	-137.109634
503.906250	-137.109024
505.371094	-137.108032
506.835938	-137.108414
508.300781	-137.108459
509.765625	-137.107849
511.230469	-137.107620
512.695313	-137.107544
514.160156	-137.107697
515.625000	-137.107147
517.089844	-137.107208
518.554688	-137.107468
520.019531	-137.107712
521.484375	-137.107422
522.949219	-137.106918
524.414063	-137.106949
525.878906	-137.107010
527.343750	-137.106903
528.808594	-137.107025
530.273438	-137.106995
531.738281	-137.106949
533.203125	-137.107193
534.667969	-137.107224
536.132813	-137.107254
537.597656	-137.107071
539.062500	-137.107422
540.527344	-137.107452
541.992188	-137.107422
543.457031	-137.107727
544.921875	-137.107925
546.386719	-137.108047
547.851563	-137.108276
549.316406	-137.108536
550.781250	-137.108551
552.246094	-137.108948
553.710938	-137.109024
555.175781	-137.109268
556.640625	-137.109451
558.105469	-137.109558
559.570313	-137.109863
561.035156	-137.110291
562.500000	-137.110382
563.964844	-137.110596
565.429688	-137.110855
566.894531	-137.111038
568.359375	-137.111221
569.824219	-137.111786
571.289063	-137.111908
572.753906	-137.112167
574.218750	-137.112213
575.683594	-137.112259
577.148438	-137.112564
578.613281	-137.112946
580.078125	-137.112900
581.542969	-137.113129
583.007813	-137.113663
584.472656	-137.113541
585.937500	-137.113464
587.402344	-137.113800
588.867188	-137.113983
590.332031	-137.114029
591.796875	-137.114548
593.261719	-137.114349
594.726563	-137.114136
596.191406	-137.114166
597.656250	-137.114487
599.121094	-137.114456
600.585938	-137.114624
602.050781	-137.114868
603.515625	-137.114700
604.980469	-137.114304
606.445313	-137.114365
607.910156	-137.114304
609.375000	-137.114349
610.839844	-137.114639
612.304688	-137.114502
613.769531	-137.114273
615.234375	-137.114243
616.699219	-137.114105
618.164063	-137.113892
619.628906	-137.113892
621.093750	-137.113861
622.558594	-137.113571
624.023438	-137.113693
625.488281	-137.113342
626.953125	-137.113159
628.417969	-137.112961
629.882813	-137.112564
631.347656	-137.112228
632.812500	-137.112244
634.277344	-137.111923
635.742188	-137.111862
637.207031	-137.111862
638.671875	-137.111740
640.136719	-137.111649
641.601563	-137.111496
643.066406	-137.111008
644.531250	-137.111099
645.996094	-137.111267
647.460938	-137.111023
648.925781	-137.110382
650.390625	-137.110260
651.855469	-137.110031
653.320313	-137.109863
654.785156	-137.109589
656.250000	-137.109406
657.714844	-137.109360
659.179688	-137.109222
660.644531	-137.109009
662.109375	-137.108688
663.574219	-137.108414
665.039063	-137.108322
666.503906	-137.107910
667.968750	-137.107834
669.433594	-137.107834
670.898438	-137.107513
672.363281	-137.106949
673.828125	-137.107056
675.292969	-137.106873
676.757813	-137.106430
678.222656	-137.106262
679.687500	-137.105820
681.152344	-137.105484
682.617188	-137.105347
684.082031	-137.105087
685.546875	-137.104919
687.011719	-137.104492
688.476563	-137.104233
689.941406	-137.103806
691.406250	-137.103561
692.871094	-137.103226
694.335938	-137.102997
695.800781	-137.102936
697.265625	-137.102402
698.730469	-137.101913
700.195313	-137.101608
701.660156	-137.101089
703.125000	-137.100891
704.589844	-137.100525
706.054688	-137.100327
707.519531	-137.100037
708.984375	-137.099701
710.449219	-137.099197
711.914063	-137.098846
713.378906	-137.098495
714.843750	-137.098190
716.308594	-137.097870
717.773438	-137.097534
719.238281	-137.097198
720.703125	-137.096848
722.167969	-137.096466
723.632813	-137.096176
725.097656	-137.095963
726.562500	-137.095749
728.027344	-137.095459
729.492188	-137.095291
730.957031	-137.095245
732.421875	-137.094803
733.886719	-137.094360
735.351563	-137.094421
736.816406	-137.094330
738.281250	-137.093903
739.746094	-137.093781
741.210938	-137.094009
742.675781	-137.093597
744.140625	-137.093536
745.605469	-137.093597
747.070313	-137.093567
748.535156	-137.093567
750.000000	-137.093613
751.464844	-137.093704
752.929688	-137.093735
754.394531	-137.093826
755.859375	-137.094086
757.324219	-137.094162
758.789063	-137.094528
760.253906	-137.094879
761.718750	-137.094971
763.183594	-137.094879
764.648438	-137.095261
766.113281	-137.095810
767.578125	-137.095932
769.042969	-137.096176
770.507813	-137.096588
771.972656	-137.097137
773.437500	-137.097412
774.902344	-137.097641
776.367188	-137.098099
777.832031	-137.098694
779.296875	-137.099091
780.761719	-137.099426
782.226563	-137.100037
783.691406	-137.100449
785.156250	-137.100876
786.621094	-137.101303
788.085938	-137.101776
789.550781	-137.102280
791.015625	-137.102661
792.480469	-137.103119
793.945313	-137.103592
795.410156	-137.104065
796.875000	-137.104324
798.339844	-137.104874
799.804688	-137.105362
801.269531	-137.105637
802.734375	-137.105927
804.199219	-137.106522
805.664063	-137.106964
807.128906	-137.107407
808.593750	-137.107483
810.058594	-137.107788
811.523438	-137.108017
812.988281	-137.108398
814.453125	-137.108536
815.917969	-137.108932
817.382813	-137.108994
818.847656	-137.109070
820.312500	-137.109253
821.777344	-137.109283
823.242188	-137.109482
824.707031	-137.109589
826.171875	-137.109619
827.636719	-137.109604
829.101563	-137.109711
830.566406	-137.109619
832.031250	-137.109573
833.496094	-137.109558
834.960938	-137.109573
836.425781	-137.109222
837.890625	-137.109161
839.355469	-137.109146
840.820313	-137.108994
842.285156	-137.108917
843.750000	-137.108536
845.214844	-137.108444
846.679688	-137.108170
848.144531	-137.108002
849.609375	-137.107803
851.074219	-137.107651
852.539063	-137.107376
854.003906	-137.107162
855.468750	-137.106888
856.933594	-137.106705
858.398438	-137.106339
859.863281	-137.106186
861.328125	-137.105896
862.792969	-137.105530
864.257813	-137.105438
865.722656	-137.105362
867.187500	-137.105057
868.652344	-137.104675
870.117188	-137.104614
871.582031	-137.104431
873.046875	-137.104111
874.511719	-137.104141
875.976563	-137.104050
877.441406	-137.103622
878.906250	-137.103546
880.371094	-137.103683
881.835938	-137.103485
883.300781	-137.103241
884.765625	-137.103317
886.230469	-137.103210
887.695313	-137.103256
889.160156	-137.103165
890.625000	-137.103241
892.089844	-137.103195
893.554688	-137.103317
895.019531	-137.103271
896.484375	-137.103149
897.949219	-137.103134
899.414063	-137.103394
900.878906	-137.103622
902.343750	-137.103561
903.808594	-137.103561
905.273438	-137.103745
906.738281	-137.103973
908.203125	-137.103912
909.667969	-137.104019
911.132813	-137.104126
912.597656	-137.104050
914.062500	-137.104279
915.527344	-137.104568
916.992188	-137.104431
918.457031	-137.104782
919.921875	-137.104752
921.386719	-137.104874
922.851563	-137.104874
924.316406	-137.105011
925.781250	-137.104980
927.246094	-137.105057
928.710938	-137.105148
930.175781	-137.105133
931.640625	-137.105103
933.105469	-137.105225
934.570313	-137.105225
936.035156	-137.105103
937.500000	-137.105057
938.964844	-137.104919
940.429688	-137.104919
941.894531	-137.104797
943.359375	-137.104858
944.824219	-137.104584
946.289063	-137.104385
947.753906	-137.104294
949.218750	-137.104065
950.683594	-137.104019
952.148438	-137.103729
953.613281	-137.103485
955.078125	-137.103241
956.542969	-137.102997
958.007813	-137.102768
959.472656	-137.102478
960.937500	-137.102219
962.402344	-137.101974
963.867188	-137.101685
965.332031	-137.101288
966.796875	-137.101013
968.261719	-137.100662
969.726563	-137.100281
971.191406	-137.099854
972.656250	-137.099533
974.121094	-137.099136
975.585938	-137.098770
977.050781	-137.098450
978.515625	-137.098068
979.980469	-137.097763
981.445313	-137.097351
982.910156	-137.097000
984.375000	-137.096466
985.839844	-137.096222
987.304688	-137.095810
988.769531	-137.095474
990.234375	-137.095123
991.699219	-137.094833
993.164063	-137.094482
994.628906	-137.094162
996.093750	-137.093811
997.558594	-137.093582
999.023438	-137.093277
1000.488281	-137.092941
1001.953125	-137.092667
1003.417969	-137.092316
1004.882813	-137.092072
1006.347656	-137.091904
1007.812500	-137.091614
1009.277344	-137.091339
1010.742188	-137.091263
1012.207031	-137.091034
1013.671875	-137.090790
1015.136719	-137.090637
1016.601563	-137.090500
1018.066406	-137.090439
1019.531250	-137.090256
1020.996094	-137.090134
1022.460938	-137.089981
1023.925781	-137.089905
1025.390625	-137.089706
1026.855469	-137.089783
1028.320313	-137.089676
1029.785156	-137.089569
1031.250000	-137.089508
1032.714844	-137.089493
1034.179688	-137.089508
1035.644531	-137.089569
1037.109375	-137.089523
1038.574219	-137.089539
1040.039063	-137.089417
1041.503906	-137.089417
1042.968750	-137.089554
1044.433594	-137.089600
1045.898438	-137.089569
1047.363281	-137.089615
1048.828125	-137.089661
1050.292969	-137.089706
1051.757813	-137.089844
1053.222656	-137.089874
1054.687500	-137.089874
1056.152344	-137.089935
1057.617188	-137.090134
1059.082031	-137.090103
1060.546875	-137.090271
1062.011719	-137.090347
1063.476563	-137.090576
1064.941406	-137.090454
1066.406250	-137.090607
1067.871094	-137.090714
1069.335938	-137.090820
1070.800781	-137.090912
1072.265625	-137.091049
1073.730469	-137.090927
1075.195313	-137.091263
1076.660156	-137.091385
1078.125000	-137.091507
1079.589844	-137.091599
1081.054688	-137.091675
1082.519531	-137.091858
1083.984375	-137.092010
1085.449219	-137.092148
1086.914063	-137.092300
1088.378906	-137.092438
1089.843750	-137.092529
1091.308594	-137.092651
1092.773438	-137.092804
1094.238281	-137.092896
1095.703125	-137.093094
1097.167969	-137.093185
1098.632813	-137.093475
1100.097656	-137.093506
1101.562500	-137.093811
1103.027344	-137.093887
1104.492188	-137.093933
1105.957031	-137.094101
1107.421875	-137.094254
1108.886719	-137.094406
1110.351563	-137.094513
1111.816406	-137.094650
1113.281250	-137.094818
1114.746094	-137.094833
1116.210938	-137.094986
1117.675781	-137.095184
1119.140625	-137.095200
1120.605469	-137.095444
1122.070313	-137.095474
1123.535156	-137.095505
1125.000000	-137.095612
1126.464844	-137.095749
1127.929688	-137.095734
1129.394531	-137.095901
1130.859375	-137.095917
1132.324219	-137.095871
1133.789063	-137.095856
1135.253906	-137.095871
1136.718750	-137.095932
1138.183594	-137.095993
1139.648438	-137.095840
1141.113281	-137.095825
1142.578125	-137.095901
1144.042969	-137.095993
1145.507813	-137.095764
1146.972656	-137.095627
1148.437500	-137.095673
1149.902344	-137.095612
1151.367188	-137.095413
1152.832031	-137.095413
1154.296875	-137.095444
1155.761719	-137.095123
1157.226563	-137.094864
1158.691406	-137.094772
1160.156250	-137.094742
1161.621094	-137.094574
1163.085938	-137.094391
1164.550781	-137.094254
1166.015625	-137.093994
1167.480469	-137.093887
1168.945313	-137.093628
1170.410156	-137.093414
1171.875000	-137.093292
1173.339844	-137.093185
1174.804688	-137.092972
1176.269531	-137.092636
1177.734375	-137.092438
1179.199219	-137.092346
1180.664063	-137.092148
1182.128906	-137.091995
1183.593750	-137.091797
1185.058594	-137.091537
1186.523438	-137.091492
1187.988281	-137.091248
1189.453125	-137.091110
1190.917969	-137.091064
1192.382813	-137.090820
1193.847656	-137.090652
1195.312500	-137.090515
1196.777344	-137.090347
1198.242188	-137.090393
1199.707031	-137.090240
1201.171875	-137.090210
1202.636719	-137.090134
1204.101563	-137.090073
1205.566406	-137.090057
1207.031250	-137.089996
1208.496094	-137.090027
1209.960938	-137.090042
1211.425781	-137.090103
1212.890625	-137.090118
1214.355469	-137.090088
1215.820313	-137.090164
1217.285156	-137.090256
1218.750000	-137.090256
1220.214844	-137.090347
1221.679688	-137.090469
1223.144531	-137.090591
1224.609375	-137.090683
1226.074219	-137.090897
1227.539063	-137.090912
1229.003906	-137.091049
1230.468750	-137.091171
1231.933594	-137.091324
1233.398438	-137.091431
1234.863281	-137.091553
1236.328125	-137.091721
1237.792969	-137.091690
1239.257813	-137.091919
1240.722656	-137.092148
1242.187500	-137.092178
1243.652344	-137.092468
1245.117188	-137.092484
1246.582031	-137.092682
1248.046875	-137.092651
1249.511719	-137.092972
1250.976563	-137.092957
1252.441406	-137.092957
1253.906250	-137.093048
1255.371094	-137.092773
1256.835938	-137.093002
1258.300781	-137.093048
1259.765625	-137.093124
1261.230469	-137.092972
1262.695313	-137.092789
1264.160156	-137.093262
